alpha,tau,r,Dtau,Dr
0.,17.973739364144606,0.11077262282170842,0.03882743225858576,15.115151102514721
0.014654587464395968,17.97487090118951,0.3323111960873209,0.11562754511389883,15.121209978481891
0.02929719966831603,17.977122203727927,0.5538297562405278,0.19161390119686672,15.13712272633077
0.0439175321910774,17.98046633542265,0.7753149746160524,0.2654472130148397,15.162734436559587
0.058505524556945354,17.984860676762775,0.9967535426851927,0.3365534278007964,15.197868818236266
0.07305144028485233,17.9902529695575,1.2181321801546996,0.40427667452078536,15.2422747652255
0.08754594292129854,17.996581439135372,1.4394376431101061,0.46836833440724185,15.295711177129661
0.10198015591206361,18.003776625836842,1.660656732216491,0.5277864415906317,15.357790353216496
0.11634569496696347,18.01176488684973,1.8817763009898762,0.584128905414405,15.428423137254558
0.13063453141537754,18.020488926096753,2.1027832641527273,0.6357240331087415,15.507123050358622
0.14483951178430915,18.029846421567196,2.3236646060873465,0.6811322088568535,15.593374833383713
0.15895390470809284,18.03975463903752,2.544407389401313,0.7220013456945126,15.687021028791564
0.17297154350914368,18.050130372413527,2.7649987636195617,0.7575920599304294,15.787635607067957
0.18688682931760775,18.06089008059344,2.985425974018184,0.7879983696646102,15.894873537000986
0.2006947345453164,18.07194967191748,3.2056763706155675,0.8131368304392268,16.00837474302666
0.21439069220252463,18.083232489756586,3.4257374173371216,0.8337487979489672,16.127962258019966
0.2279706661643131,18.094661927903086,3.6455967013705193,0.8483019009252165,16.252962168483855
0.2414315079694756,18.1061374525089,3.865241942729129,0.8555972450949462,16.382696117134724
0.25477062706617654,18.117560252773995,4.08466100404216,0.8558486384774614,16.51676644700639
0.26798600204996553,18.128831170048496,4.303841900590962,0.8485592770979998,16.654619010308057
0.28107628419740016,18.139843770787202,4.5227728106119045,0.8323334111408576,16.795385873865396
0.2940409181676297,18.15047798716875,4.741442085887394,0.8065754052814664,16.9383799560455
0.30687989759788786,18.160614362163457,4.959838262647786,0.7704351795957725,17.08278061878492
0.3195940553678069,18.170117702873345,5.177950072808224,0.7223851062965794,17.227510121824704
0.3321849394455237,18.178844442058754,5.395766455565949,0.6614219358302356,17.371567158897
0.34465488901634106,18.186638797887863,5.613276569385111,0.5860542357677074,17.513727067560506
0.3570070493198697,18.19333236125678,5.830469804397872,0.49478352565069944,17.652670198301657
0.3692454627743166,18.198740152180886,6.047335795252401,0.3856435448527284,17.78680347178731
0.3813751504595553,18.202657606433124,6.263864434440456,0.25659733560767556,17.914398044250703
0.39340218729453735,18.204858157187964,6.480045886139358,0.10516859060967294,18.033388240964566
0.40533384891453045,18.20508800059176,6.695870600605634,-0.07128900530448194,18.14154282476275
0.417178808078303,18.20305939825684,6.91132932916019,-0.27661661805029025,18.235795945967425
0.4289473314872114,18.198444703332363,7.126413139807729,-0.5133573569003372,18.313705871178662
0.4406515549483281,18.190867894423672,7.341113433536246,-0.7885814807299072,18.36993280406335
0.45230581478886167,18.17989482743269,7.555421961345767,-1.1008702025339145,18.403992468941333
0.4639271231531973,18.165019041298486,7.769330842059314,-1.4705057923841303,18.4021213314276
0.475535735986229,18.145645655318305,7.982832580972949,-1.870294738756911,18.37861255340977
0.48715599565628354,18.1210669692385,8.195920089406336,-2.3860326085112433,18.27967618391881
0.4988173865727238,18.09043317458679,8.408586705219927,-2.8438389217825204,18.206367407245125
0.5105565471384644,18.052692562587495,8.620826214370265,-3.683803306138259,17.89157736401203
0.5224174233234604,18.006603972042313,8.83263287358063,-3.9509622192406226,17.901642490210868
0.5344587181704205,17.950498654751954,9.044001434210571,-5.380653549586704,17.193549066847037
0.5363528290153741,17.940291344770493,9.076578100262655,-5.381205276560038,17.213763956218223
0.546754274058971,17.882308865261127,9.254927167414849,-6.225028617622376,16.799403933583996
0.5504535512440278,17.85864113908299,9.31673927848301,-6.499618464090564,16.661530674489736
0.5543869159730058,17.8329170538296,9.38223302653217,-6.5871352145065885,16.635698463455647
0.5594045322977171,17.799231993195168,9.465405890689942,-6.868384484576326,16.499180574100986
0.5725497917214486,17.697383511499794,9.675433995914558,-8.910557501624126,15.255434703019864
0.5779698945396363,17.64939303936248,9.75837472604463,-8.676271773645057,15.427568418319735
0.5863880652649864,17.57136619330565,9.88500847899998,-10.143622357635323,14.467178615329928
0.587744844350805,17.557508036017342,9.904572906587173,-10.272435138817485,14.380092997102256
0.5904575468276739,17.529401994480462,9.943415764731656,-10.449978956999018,14.256960803910687
0.5930767769163063,17.50178003668846,9.980583025099742,-10.641657828193871,14.123043427257667
0.5961089991744987,17.46919244339199,10.023179858754128,-10.85208252889068,13.972820873550567
0.6012412517888781,17.41243122098409,10.094126971276062,-11.31179062495545,13.644342344294596
0.6099217901213578,17.306254476909647,10.206829028829738,-13.041884982928313,12.385601769549245
0.613870637734117,17.255815926621256,10.256431884452883,-12.582424910729946,12.681549938722096
0.6176432623516009,17.206334827089275,10.302787772749936,-13.803860059078668,11.781748182920207
0.6192488372686719,17.183906471323922,10.321501672122693,-14.07414450131972,11.571667717964063
0.6209622901427407,17.159702428667185,10.34124847817211,-14.182071969214007,11.474217473888068
0.6230580644184291,17.1297176455237,10.365081246713284,-14.46198048280246,11.247580855664161
0.6281721161158171,17.05475568766499,10.421708099026576,-14.555145897130242,11.117352296665771
0.6329828232089775,16.98185091514273,10.47290602065058,-15.682661161409726,10.218083528910135
0.6346532135938504,16.955980502672137,10.490193779179389,-15.345968193553567,10.441384951122334
0.6366970089462023,16.923926041041966,10.510989887386897,-16.217973667097468,9.763318906997386
0.6373391226824533,16.91342272410293,10.517189192840235,-16.467256765186875,9.56750814950857
0.6391465651322252,16.883614181906744,10.53441745904203,-16.43022813405628,9.559890298200052
0.6435757777868658,16.80909282641628,10.575269942008626,-17.1038845044415,8.970709970264839
0.6453899358206511,16.777957144178124,10.591428897983336,-17.252709416436787,8.820140893410285
0.6473470078363784,16.743964568656246,10.608478008523337,-17.47853672158609,8.607729381938645
0.648603586285295,16.721916227404932,10.619212323070307,-17.615639284331223,8.475986288421055
0.6500542576941111,16.696244279305105,10.631395419741684,-17.774911509217407,8.32239466035202
0.653624261815344,16.632064409055538,10.660405981320013,-18.224415020520077,7.894412802104333
0.6569819256403887,16.570387427416406,10.686403067245129,-18.52072580196635,7.58418841591299
0.6580915976465593,16.549721256537453,10.69471478049242,-18.723691425824416,7.39846860212731
0.6595629779135558,16.522101047285744,10.705518187217024,-18.774791398209572,7.320924677825872
0.6614116587501848,16.487040566903755,10.71873306057647,-19.356831054238334,6.818410721666564
0.661932908712134,16.476879201188392,10.722227626011845,-19.619854471532797,6.599098176540655
0.6657501211596653,16.4015094576928,10.746831449597245,-19.889325907689177,6.27518897716102
0.6675899413259695,16.3646007481898,10.758078001036912,-20.178922475341544,5.992025668507541
0.6694093904746428,16.327728108206777,10.768803569869693,-20.364636341713677,5.788313115698382
0.6704729906255636,16.306001768025393,10.77488946021588,-20.488285730699175,5.656622473183404
0.6716909241865363,16.28096737289415,10.781690656886328,-20.62101728787751,5.511903228266629
0.6747011519877204,16.218381385066042,10.797725952907436,-20.960623723719504,5.141549851084584
0.6775604498433694,16.15799772873071,10.811926309856979,-21.277264219228556,4.789491991503525
0.6785275730725855,16.13736799658501,10.816500118349106,-21.38468926970543,4.6690806187127505
0.6798142607720682,16.109760973589825,10.822404528898788,-21.527026930838502,4.508490141175457
0.6811980194530733,16.07986705035858,10.828523236235581,-21.679728877781244,4.334997465861349
0.6825721185483886,16.049973127127334,10.834361229266605,-21.830740458873656,4.162098229532777
0.6862732901246136,15.968425340009272,10.848899710322778,-22.234429399273665,3.6933189759082117
0.6882213870119596,15.924905458698134,10.855853060014471,-22.4446457742688,3.4451641797034185
0.6894488679122739,15.897274281415816,10.859985753023347,-22.57618713864089,3.2883989521988664
0.6906883308083832,15.869209993032928,10.863963341266453,-22.708279957354648,3.1298007983358644
0.691920647254136,15.841145704650042,10.867722970998106,-22.838782791739888,2.9718995573632405
0.6950274833745572,15.769682832855477,10.876336860249436,-23.16394616465248,2.573020608103116
0.6963475727284162,15.73901424279789,10.879621487423323,-23.300262908654414,2.403351846803292
0.6975281728202716,15.71143449619881,10.882369308246437,-23.421151339268715,2.2516008854255287
0.6986347861737819,15.685454048053579,10.884782254324662,-23.533581325348408,2.1093587228110238
0.6997361586817844,15.659473599908349,10.887027504043829,-23.644575699879812,1.9678391278339822
0.7040915325255681,15.555551807327426,10.894381100000281,-24.074046304771485,1.4092915656993057
0.7051497205493148,15.530022934611251,10.895800798643883,-24.175945526692097,1.2740114785895633
0.7064306665010833,15.498976580079153,10.897328027955579,-24.297904636938345,1.110584238652643
0.7073356048046946,15.476949851850444,10.898280887416972,-24.383137979464507,0.9953587612333905
0.708390414388476,15.451178313567034,10.899260078794251,-24.481497319932032,0.8613139495522617
0.7110092876501295,15.38674946785851,10.901081445368549,-24.720786730481773,0.5300360823968895
0.7136051724505099,15.322276929198464,10.902033671793003,-24.95090324346579,0.2040206177200048
0.7146397028452695,15.296418005012013,10.902177899990715,-25.040504452870426,0.07489358324945805
0.7157483976265768,15.268603135907949,10.902184481382806,-25.135139340556904,-0.06292448222959678
0.7168235422814199,15.241530505283569,10.90204523474827,-25.225542537902967,-0.19600964946648247
0.7178948765766802,15.214457874659189,10.901764467760268,-25.314246701004492,-0.3280306992195212
0.7221440657335233,15.106167352161672,10.8992681309518,-25.65196023859852,-0.8451895842719352
0.7231928294641502,15.079222554451707,10.898315642097106,-25.731712940176834,-0.9710847674709822
0.7244245190456706,15.047472358431417,10.897029012700022,-25.82345931742628,-1.1179472743856556
0.7253237427404841,15.024221677383935,10.89597578090379,-25.88914309992704,-1.2244923116556876
0.7264122670628707,14.995998112454274,10.89457305603839,-25.967130642655725,-1.3526432107149944
0.7291196857694632,14.925439200130125,10.890483581017403,-26.15390709870428,-1.6674444614390165
0.7310735960378214,14.87421048020135,10.887006576007437,-26.282201809176655,-1.8909602613737881
0.7327336160855094,14.830494344785125,10.88371193846072,-26.38651950501291,-2.078025139612074
0.7335873794585392,14.807944194168396,10.881897081642816,-26.43859586113149,-2.1732956747782453
0.7346073808059863,14.780945668386776,10.879622641411144,-26.499341176683693,-2.2862089215910117
0.7371474825690193,14.713449353932727,10.873462610919926,-26.64365690457006,-2.5630415167520244
0.738305197028294,14.682567245684362,10.870423393361373,-26.706095023950247,-2.687082011027078
0.7395647595399141,14.648887780880521,10.866954726894635,-26.771518945152916,-2.8203716514303063
0.7404159389319929,14.626082120838127,10.864516093512458,-26.814316050984132,-2.90951300977099
0.7414358197394718,14.598709211432993,10.861494705510317,-26.864030891932494,-3.0152649364420974
0.7439775845531149,14.53027693792016,10.85350061831335,-26.980613902081842,-3.2738355451946717
0.7454098064562832,14.491590545688933,10.848709406348751,-27.041675306167996,-3.4163221935507373
0.7468248122578899,14.453285791421562,10.843777166265147,-27.0985497225292,-3.554622624693772
0.7476744027314016,14.43024920421723,10.840722339817075,-27.131113119112413,-3.636525125204855
0.7486730027935806,14.403137587960323,10.837043291942638,-27.167860981452417,-3.731686955956704
0.7511638792750942,14.335358547318057,10.827457564938637,-27.252198080625192,-3.9636535745858907
0.7537127095523882,14.26579871443073,10.817060886663569,-27.327824791579282,-4.193034784487882
0.7551768633592225,14.225757967211408,10.810827619303103,-27.366279669150327,-4.320977982896461
0.7561897845163476,14.19802554195807,10.806406705055304,-27.390760460772867,-4.407841642261701
0.7571748228440837,14.171033545031856,10.802023737778761,-27.41291466177823,-4.491018539119267
0.7597980057130741,14.099054886561948,10.78995862823828,-27.464098543536714,-4.706338454306167
0.7608091264753619,14.071276834221178,10.7851591562472,-27.480689051394375,-4.78679998559854
0.7617447337229585,14.045559075086553,10.78064620630155,-27.494632022579765,-4.860123367988763
0.7626798928298739,14.019841315951927,10.776067459370106,-27.506929944768927,-4.932038105077652
0.7651052458280486,13.953094154275792,10.763883825067488,-27.533292629603118,-5.114138780746557
0.7662173187423365,13.922470867462025,10.758152288907793,-27.54061437047925,-5.193420328270035
0.7672172664375873,13.894927984741711,10.752922994218517,-27.548018489907665,-5.2657365838381525
0.7681418254539543,13.869456997813911,10.74802543704442,-27.54951016773036,-5.327535204256641
0.769066269563897,13.843986010886113,10.74306953744227,-27.561991321369177,-5.400250187872404
0.7727638013499551,13.742102063174913,10.722679456165281,-27.519518499072717,-5.601849123793002
0.773831486834945,13.712532900649961,10.716477761062839,-27.877124588473325,-6.022630387930448
0.7749983169140567,13.679902057863217,10.709303673201145,-27.982125468032727,-6.204360751358065
0.7757825530830971,13.65797300447065,10.704432222207858,-27.94984115900027,-6.226252787732804
0.7767129350758429,13.631961159209785,10.698602297318597,-27.96972010332339,-6.309091335346711
0.7790398396652991,13.566931546057623,10.683788648035266,-27.92261337099052,-6.422189603987647
0.7814075407331782,13.500817726432913,10.668389360271597,-27.909685997457117,-6.571889674170091
0.782417542559249,13.472637468226957,10.661725094176537,-27.893381212101318,-6.625321351210834
0.783411427674989,13.444922214770688,10.655113738679367,-27.877732746281815,-6.678329589022441
0.784347963493408,13.418821465328651,10.648836662591536,-27.861010466111374,-6.726380021321397
0.7852850765528379,13.392720715886613,10.642511067156727,-27.843407766906093,-6.773630087592185
0.7890402156404478,13.288317718118462,10.616739535244804,-27.758864292672563,-6.949312809702107
0.7903021602499917,13.253307996797405,10.607935108023549,-27.726071768202452,-7.004016168164282
0.7916193428225495,13.21681157886527,10.598673279345414,-27.68942784212757,-7.0586858825056416
0.7923841226302526,13.195643756545435,10.5932631633302,-27.667087002236627,-7.089347552034383
0.7932282592641399,13.17229966917737,10.587264814327021,-27.64155668851612,-7.122300050289336
0.7953421405963144,13.113939450757208,10.572125176932113,-27.573591657662753,-7.2006571948930205
0.7974487143501089,13.05592971392095,10.556879159339791,-27.500546749749333,-7.2731743512912
0.7982725334049816,13.033286589720692,10.550876314659003,-27.47042666389782,-7.299890684186795
0.7992286760717664,13.007037970327657,10.543882097118223,-27.43466930735039,-7.330026917626242
0.8001640954925223,12.981391905439718,10.537012185705274,-27.39836707735138,-7.358108298315003
0.8011007639715244,12.955745840551781,10.530107039329167,-27.362364634417347,-7.386493574702135
0.8048372306658609,12.85316158100003,10.50165820438839,-27.707453845110376,-8.008818592430675
0.8062521220664169,12.813938480491288,10.490233655564849,-27.696677311063958,-8.099589146419063
0.8076009742944258,12.77663350399836,10.479298803358116,-27.622957995169003,-8.120134991663006
0.8083803764853793,12.75511771137083,10.472962252606868,-27.58726080243008,-8.139055323474295
0.8092996370063453,12.729779552354323,10.465472579228154,-27.539634463210856,-8.155538400860793
0.8116046234472334,12.666434154813057,10.446622305491218,-27.423266613132,-8.199482962134965
0.8140063089266595,12.60072842110084,10.426886762997059,-27.293260533540515,-8.23527902196971
0.8151088596696989,12.570669589742424,10.417798550467612,-27.232438744948507,-8.25018404030429
0.8161562747577755,12.542176693163674,10.409150388514558,-27.17355611380577,-8.262991600903925
0.817083707830916,12.516999519068051,10.401482144516647,-27.120622749097727,-8.273322438824458
0.8180129646027002,12.491822344972427,10.393789570394288,-27.06718583326773,-8.283102832992236
0.8217489130930558,12.391113648589934,10.362785583915533,-26.84193348315472,-8.309544175157576
0.8230245607709182,12.356918848797317,10.35217684225429,-26.768943861951335,-8.322254270712659
0.8243530767091777,12.32141349840275,10.341119766486356,-26.681931785464872,-8.32314455767808
0.8251686849334677,12.299670409379209,10.334328051833067,-26.63655038976981,-8.332276892604895
0.826111354837911,12.274592181830384,10.326475677247654,-26.56027808774376,-8.316665767409141
0.8284773990234873,12.211896612958322,10.306758751330841,-26.62281626840706,-8.553819406215517
0.8304834325987195,12.158102421335418,10.289030606200088,-26.88445850621488,-8.985233318210339
0.8321155113171329,12.114310749674718,10.274362161574627,-26.773656610496054,-8.983630202520207
0.8328915200717497,12.093555827942398,10.267392553295108,-26.717819522088718,-8.97907058336233
0.8338139728799207,12.068940560327007,10.259112394895858,-26.651275864565363,-8.973297478114187
0.8361303184491304,12.007402391288528,10.238346998507886,-26.482164459636067,-8.955451528268611
0.8384811953963838,11.945349844652432,10.217318861176276,-26.30848572715431,-8.93351652798097
0.8394572855107909,11.919705821841806,10.208603864638569,-26.235828113579963,-8.923318515021876
0.8405321492044433,11.891549099600851,10.199018937935174,-26.155345663805083,-8.911229175234793
0.8414743856360586,11.866937864676938,10.190627611375437,-26.08469611880607,-8.900236852273807
0.8424191887443595,11.842326629753025,10.18222418199859,-26.013140553016928,-8.888131668688143
0.8462246506306189,11.743881690057373,10.148495873416362,-25.730170999152143,-8.842576561445082
0.8476929307713217,11.706192268900658,10.13553708453988,-25.60872110695515,-8.809770343593343
0.849165448669805,11.66855923917441,10.122573877907872,-25.504990885690766,-8.796813190693308
0.8500148715911193,11.646925932952408,10.115111584845389,-25.42991300499017,-8.771614657035855
0.850978622615165,11.622447639656297,10.106658989368528,-25.3854894382874,-8.78929709544959
0.8533768947429745,11.561251906416015,10.085015462918513,-25.68504749005166,-9.303739543932437
0.8554850058975402,11.507079677142723,10.065211161618624,-25.623009597024538,-9.386068668660105
0.8572049593490038,11.463160637725013,10.04913434680937,-25.460269319838655,-9.323425131561766
0.8580065009580805,11.442778857538206,10.041667664256575,-25.395238848033983,-9.30625804050112
0.8589503478725118,11.418848221945659,10.032896450607419,-25.31325999430986,-9.279520319646064
0.8613230855405313,11.359021632964286,10.010948928239468,-25.115928728410466,-9.220894154143764
0.8639013942461344,11.294550287148526,9.987269652215442,-24.89544383361555,-9.14764259011653
0.8652387191089286,11.2613301378872,9.975058347988384,-24.78570284038594,-9.114115562368879
0.866255766200879,11.236166271976382,9.965804330617248,-24.698300451415854,-9.083429972192347
0.867229154524059,11.212163567029801,9.956974222930134,-24.620854877264236,-9.061116523614437
